Time,Temp.,DSC,DDSC
13.751666666666667,200.818664550781,0,0.609375
13.76,200.818695068359,0.1181640625,3.9873046875
13.768333333333333,200.818695068359,0.1983642578125,10.18212890625
13.776666666666667,200.818695068359,0.211669921875,14.55615234375
13.785,200.818603515625,0.281005859375,19.69482421875
13.793333333333333,200.818405151367,0.2340087890625,25.376953125
13.801666666666666,200.818054199219,-0.0247802734375,26.50927734375
13.81,200.81755065918,-0.5377197265625,22.90576171875
13.818333333333333,200.816757202148,-1.0484619140625,7.75048828125
13.826666666666666,200.815673828125,-1.6141357421875,-20.3203125
13.835,200.814208984375,-2.11474609375,-66.3544921875
13.843333333333334,200.81233215332,-2.0909423828125,-127.3330078125
13.851666666666667,200.809799194336,-1.71044921875,-206.572265625
13.86,200.806686401367,-0.4342041015625,-299.3525390625
13.868333333333334,200.802749633789,1.974365234375,-415.88818359375
13.876666666666667,200.798004150391,5.7635498046875,-545.3408203125
13.885,200.792251586914,10.5863037109375,-682.9482421875
13.893333333333333,200.785491943359,16.6766357421875,-828.91552734375
13.901666666666667,200.777648925781,23.8975830078125,-975.984375
13.91,200.768585205078,33.043212890625,-1121.06103515625
13.918333333333333,200.758331298828,43.330322265625,-1258.67431640625
13.926666666666666,200.746795654297,54.8214111328125,-1391.9326171875
13.935,200.733917236328,67.3658447265625,-1516.93359375
13.943333333333333,200.719680786133,80.8978271484375,-1635.99755859375
13.951666666666666,200.703994750977,95.3961181640625,-1736.7509765625
13.96,200.686859130859,110.653076171875,-1827.6357421875
13.968333333333334,200.668334960938,126.580688476563,-1907.55908203125
13.976666666666667,200.648422241211,143.087768554688,-1973.65869140625
13.985,200.627029418945,160.230712890625,-2027.61474609375
13.993333333333334,200.604217529297,177.7724609375,-2070.13037109375
14.001666666666667,200.579986572266,195.63330078125,-2100.6181640625
14.01,200.554306030273,213.78466796875,-2119.85595703125
14.018333333333333,200.527267456055,231.83740234375,-2129.11083984375
14.026666666666667,200.498825073242,249.86572265625,-2126.5224609375
14.035,200.469116210938,267.906982421875,-2113.1279296875
14.043333333333333,200.438201904297,285.70458984375,-2093.8447265625
14.051666666666666,200.406021118164,303.2353515625,-2063.6572265625
14.06,200.372619628906,320.513671875,-2024.9853515625
14.068333333333333,200.338088989258,337.44091796875,-1981.083984375
14.076666666666666,200.302520751953,353.866455078125,-1926.83203125
14.085,200.265823364258,370.120361328125,-1868.07421875
14.093333333333334,200.228088378906,385.756103515625,-1807.8984375
14.101666666666667,200.189437866211,400.586181640625,-1743.8642578125
14.11,200.14990234375,414.9560546875,-1678.025390625
14.118333333333334,200.109588623047,428.476318359375,-1608.498046875
14.126666666666667,200.068389892578,441.37744140625,-1532.390625
14.135,200.026519775391,453.8935546875,-1455.744140625
14.143333333333333,199.983963012695,465.835693359375,-1379.9853515625
14.151666666666667,199.94075012207,477.2763671875,-1302.19921875
14.16,199.89697265625,487.907958984375,-1226.9794921875
14.168333333333333,199.852676391602,497.819580078125,-1151.7509765625
14.176666666666666,199.807891845703,507.068115234375,-1073.794921875
14.185,199.762664794922,515.5849609375,-995.021484375
14.193333333333333,199.717071533203,523.47265625,-917.185546875
14.201666666666666,199.671127319336,530.724609375,-839.7099609375
14.21,199.624923706055,537.356689453125,-763.1806640625
14.218333333333334,199.578475952148,543.37646484375,-689.5986328125
14.226666666666667,199.531799316406,548.754150390625,-619.318359375
14.235,199.484924316406,553.70849609375,-551.82421875
14.243333333333334,199.437896728516,557.8837890625,-486.0322265625
14.251666666666667,199.390731811523,561.41796875,-424.01953125
14.26,199.34358215332,564.53466796875,-364.03125
14.268333333333333,199.296356201172,567.19482421875,-307.8662109375
14.276666666666667,199.249145507813,569.4580078125,-252.9697265625
14.285,199.201919555664,571.227294921875,-203.1826171875
14.293333333333333,199.154724121094,572.691650390625,-156.6796875
14.301666666666666,199.107604980469,573.71240234375,-110.5693359375
14.31,199.060577392578,574.40966796875,-68.3818359375
14.318333333333333,199.013610839844,574.789306640625,-28.72265625
14.326666666666666,198.966766357422,574.815673828125,7.5791015625
14.335,198.920059204102,574.474609375,41.2265625
14.343333333333334,198.873474121094,573.748779296875,72.615234375
14.351666666666667,198.826995849609,572.893310546875,102.498046875
14.36,198.780654907227,571.8515625,129.4365234375
14.368333333333334,198.734497070313,570.595703125,153.158203125
14.376666666666667,198.688552856445,569.256103515625,174.5537109375
14.385,198.642730712891,567.6611328125,190.65234375
14.393333333333333,198.597106933594,565.8681640625,206.0537109375
14.401666666666667,198.551666259766,564.0029296875,219.791015625
14.41,198.506393432617,562.052490234375,230.583984375
14.418333333333333,198.461334228516,559.928466796875,240.48046875
14.426666666666666,198.416412353516,557.861083984375,248.0537109375
14.435,198.371673583984,555.72216796875,254.560546875
14.443333333333333,198.327163696289,553.53564453125,259.4853515625
14.451666666666666,198.282775878906,551.38037109375,262.599609375
14.46,198.238555908203,549.216064453125,263.1796875
14.468333333333334,198.194519042969,546.989990234375,262.7109375
14.476666666666667,198.150604248047,544.65478515625,260.94140625
14.485,198.106887817383,542.379150390625,259.552734375
14.493333333333334,198.063339233398,540.169189453125,258.3193359375
14.501666666666667,198.019912719727,537.996826171875,255.1025390625
14.51,197.976638793945,535.968505859375,250.8662109375
14.518333333333333,197.933486938477,533.97705078125,243.7001953125
14.526666666666667,197.890548706055,531.90625,236.4345703125
14.535,197.847686767578,529.853759765625,227.783203125
14.543333333333333,197.804931640625,527.95751953125,218.2470703125
14.551666666666666,197.762298583984,526.08447265625,210.720703125
14.56,197.719787597656,524.346435546875,202.775390625
14.568333333333333,197.677352905273,522.67626953125,193.2158203125
14.576666666666666,197.634979248047,521.187255859375,183.2958984375
14.585,197.592758178711,519.8095703125,173.3056640625
14.593333333333334,197.550598144531,518.408447265625,162.0322265625
14.601666666666667,197.508514404297,517.0791015625,153.19921875
14.61,197.46647644043,515.804931640625,144.9931640625
14.618333333333334,197.424514770508,514.5791015625,137.3818359375
14.626666666666667,197.38264465332,513.515380859375,130.734375
14.635,197.3408203125,512.581787109375,121.7724609375
14.643333333333333,197.298980712891,511.579833984375,113.12109375
14.651666666666667,197.257232666016,510.593505859375,104.2353515625
14.66,197.215530395508,509.73876953125,94.974609375
14.668333333333333,197.173858642578,508.9150390625,87.427734375
14.676666666666666,197.132141113281,508.2607421875,80.701171875
14.685,197.090438842773,507.65234375,72.2578125
14.693333333333333,197.048797607422,507.11865234375,63.978515625
14.701666666666666,197.007186889648,506.66455078125,55.5380859375
14.71,196.965637207031,506.229736328125,45.1845703125
14.718333333333334,196.924057006836,505.856689453125,36.6181640625
14.726666666666667,196.882476806641,505.558349609375,29.091796875
14.735,196.840881347656,505.261962890625,22.306640625
14.743333333333334,196.799377441406,505.110595703125,17.2001953125
14.751666666666667,196.757797241211,505.149658203125,12.251953125
14.76,196.716278076172,505.209228515625,7.458984375
14.768333333333333,196.674728393555,505.22802734375,3.1611328125
14.776666666666667,196.633178710938,505.259765625,-1.1279296875
14.785,196.591598510742,505.231201171875,-3.80859375
14.793333333333333,196.549987792969,505.208740234375,-4.41796875
14.801666666666666,196.508361816406,505.235107421875,-5.30859375
14.81,196.466827392578,505.294921875,-6.45703125
14.818333333333333,196.425170898438,505.35595703125,-7.13671875
14.826666666666666,196.383499145508,505.427978515625,-8.794921875
14.835,196.341857910156,505.517822265625,-10.7900390625
14.843333333333334,196.300216674805,505.651611328125,-12.193359375
14.851666666666667,196.258529663086,505.76611328125,-13.4970703125
14.86,196.216735839844,505.8544921875,-14.90625
14.868333333333334,196.174942016602,505.964111328125,-15.7587890625
14.876666666666667,196.133148193359,506.10791015625,-16.4970703125
14.885,196.091293334961,506.251220703125,-16.7314453125
14.893333333333333,196.049362182617,506.419677734375,-17.291015625
14.901666666666667,196.007476806641,506.59814453125,-18.3017578125
14.91,195.965606689453,506.7412109375,-19.06640625
14.918333333333333,195.923751831055,506.892578125,-18.873046875
14.926666666666666,195.881866455078,507.0458984375,-18.310546875
14.935,195.839904785156,507.20703125,-17.5986328125
14.943333333333333,195.797988891602,507.379638671875,-16.986328125
14.951666666666666,195.75602722168,507.552978515625,-16.951171875
14.96,195.71403503418,507.6806640625,-16.6640625
14.968333333333334,195.672058105469,507.777099609375,-16.3505859375
14.976666666666667,195.630096435547,507.88623046875,-15.943359375
14.985,195.588134765625,508.013671875,-15.2021484375
14.993333333333334,195.546157836914,508.15380859375,-14.4697265625
15.001666666666667,195.504165649414,508.28125,-13.6845703125
15.01,195.462173461914,508.408447265625,-12.9140625
15.018333333333333,195.420196533203,508.53564453125,-11.8447265625
15.026666666666667,195.378204345703,508.646484375,-10.611328125
15.035,195.336181640625,508.7587890625,-9.45703125
15.043333333333333,195.294204711914,508.821044921875,-8.3583984375
15.051666666666666,195.25227355957,508.853271484375,-6.9697265625
15.06,195.21028137207,508.873291015625,-5.47265625
15.068333333333333,195.168304443359,508.89794921875,-3.7529296875
15.076666666666666,195.126312255859,508.94189453125,-2.0068359375
15.085,195.084320068359,508.977783203125,-1.4912109375
15.093333333333334,195.042373657227,508.9892578125,-1.0751953125
15.101666666666667,195.000381469727,508.99169921875,-0.4716796875
15.11,194.958435058594,508.959228515625,0.345703125
15.118333333333334,194.916442871094,508.926025390625,1.58203125
15.126666666666667,194.87451171875,508.9453125,2.5078125
15.135,194.832534790039,508.94287109375,3.4833984375
15.143333333333333,194.790573120117,508.91259765625,4.359375
15.151666666666667,194.748550415039,508.869140625,5.033203125
15.16,194.706604003906,508.81005859375,5.5927734375
15.168333333333333,194.664611816406,508.768798828125,6.9638671875
15.176666666666666,194.622619628906,508.698974609375,7.8076171875
15.185,194.580673217773,508.62841796875,8.33203125
15.193333333333333,194.538681030273,508.539794921875,8.75390625
15.201666666666666,194.496704101563,508.4599609375,9.3779296875
15.21,194.454711914063,508.364990234375,10.2099609375
15.218333333333334,194.412750244141,508.292236328125,10.3974609375
15.226666666666667,194.370803833008,508.21826171875,10.7783203125
15.235,194.328903198242,508.1396484375,10.845703125
15.243333333333334,194.286987304688,508.028564453125,11.2119140625
15.251666666666667,194.245086669922,507.91796875,11.94140625
15.26,194.203170776367,507.83251953125,12.5859375
15.268333333333333,194.161239624023,507.730224609375,12.8408203125
15.276666666666667,194.119384765625,507.635986328125,13.1865234375
15.285,194.077499389648,507.525634765625,13.0458984375
15.293333333333333,194.035659790039,507.369873046875,13.435546875
15.301666666666666,193.993865966797,507.243408203125,13.8720703125
15.31,193.952041625977,507.148193359375,14.14453125
15.318333333333333,193.910186767578,507.040771484375,14.1357421875
15.326666666666666,193.868392944336,506.94140625,13.986328125
15.335,193.826568603516,506.79833984375,13.4384765625
15.343333333333334,193.784805297852,506.676513671875,12.84375
15.351666666666667,193.743041992188,506.551513671875,12.6474609375
15.36,193.701232910156,506.4580078125,12.41015625
15.368333333333334,193.65950012207,506.360107421875,12.1904296875
15.376666666666667,193.617782592773,506.25,11.28515625
15.385,193.576049804688,506.173095703125,10.8369140625
15.393333333333333,193.534286499023,506.09423828125,10.4150390625
15.401666666666667,193.492584228516,506.006591796875,10.1279296875
15.41,193.45085144043,505.925537109375,9.380859375
15.418333333333333,193.409149169922,505.85791015625,8.1650390625
15.426666666666666,193.367446899414,505.7734375,7.634765625
15.435,193.325714111328,505.68359375,7.4853515625
15.443333333333333,193.283981323242,505.614013671875,7.21875
15.451666666666666,193.242294311523,505.578369140625,7.0576171875
15.46,193.200592041016,505.569580078125,7.0078125
15.468333333333334,193.15885925293,505.536865234375,6.9111328125
15.476666666666667,193.117126464844,505.470458984375,6.5654296875
15.485,193.075454711914,505.405029296875,6.421875
15.493333333333334,193.033721923828,505.33740234375,6.5712890625
15.501666666666667,192.992050170898,505.27392578125,6.6708984375
15.51,192.950393676758,505.197509765625,6.791015625
15.518333333333333,192.908752441406,505.136474609375,6.7119140625
15.526666666666667,192.867080688477,505.078857421875,6.515625
15.535,192.825424194336,505.03076171875,6.1259765625
15.543333333333333,192.783782958984,505.013671875,5.6455078125
15.551666666666666,192.742111206055,504.970947265625,5.33203125
15.56,192.700485229492,504.9111328125,5.00390625
15.568333333333333,192.658843994141,504.862060546875,4.5380859375
15.576666666666666,192.617172241211,504.826904296875,4.4736328125
15.585,192.575546264648,504.803466796875,4.916015625
15.593333333333334,192.533874511719,504.753173828125,4.857421875
15.601666666666667,192.492202758789,504.719482421875,4.3330078125
15.61,192.450531005859,504.70068359375,4.11328125
15.618333333333334,192.408828735352,504.657958984375,4.0751953125
15.626666666666667,192.367172241211,504.60400390625,4.0751953125
15.635,192.325469970703,504.566162109375,3.861328125
15.643333333333333,192.283828735352,504.550048828125,3.984375
15.651666666666667,192.242172241211,504.519287109375,4.32421875
15.66,192.200531005859,504.4873046875,4.4296875
15.668333333333333,192.158721923828,504.4638671875,4.5146484375
15.676666666666666,192.116943359375,504.431396484375,4.734375
15.685,192.075180053711,504.387451171875,5.1826171875
15.693333333333333,192.033447265625,504.34033203125,5.5166015625
15.701666666666666,191.991729736328,504.288818359375,5.8212890625
15.71,191.949996948242,504.227783203125,6.263671875
15.718333333333334,191.908309936523,504.171630859375,6.580078125
15.726666666666667,191.866607666016,504.1181640625,6.7587890625
15.735,191.824890136719,504.0595703125,6.849609375
15.743333333333334,191.783187866211,504.002197265625,6.8408203125
15.751666666666667,191.741470336914,503.94189453125,6.7001953125
15.76,191.699768066406,503.883056640625,6.556640625
15.768333333333333,191.658111572266,503.82421875,6.4541015625
15.776666666666667,191.616409301758,503.76953125,6.322265625
15.785,191.574691772461,503.71875,6.228515625
15.793333333333333,191.532989501953,503.66943359375,6.0673828125
15.801666666666666,191.491302490234,503.625244140625,5.9326171875
15.81,191.449645996094,503.580322265625,5.7978515625
15.818333333333333,191.407943725586,503.53271484375,5.6513671875
15.826666666666666,191.366226196289,503.483154296875,5.5458984375
15.835,191.324554443359,503.436279296875,5.4697265625
15.843333333333334,191.282928466797,503.388671875,5.4111328125
15.851666666666667,191.241271972656,503.341064453125,5.396484375
15.86,191.199630737305,503.298583984375,5.37890625
15.868333333333334,191.158096313477,503.256591796875,5.291015625
15.876666666666667,191.11653137207,503.213623046875,5.1884765625
15.885,191.074966430664,503.17431640625,5.109375
15.893333333333333,191.033401489258,503.130615234375,5.033203125
15.901666666666667,190.991806030273,503.08447265625,5.0185546875
15.91,190.950271606445,503.042236328125,5.00390625
15.918333333333333,190.908676147461,503.00390625,4.9775390625
15.926666666666666,190.867080688477,502.962890625,4.9775390625
15.935,190.82551574707,502.921630859375,4.9716796875
15.943333333333333,190.783905029297,502.88037109375,4.916015625
15.951666666666666,190.742309570313,502.839599609375,4.8984375
15.96,190.70068359375,502.798828125,4.96875
15.968333333333334,190.659057617188,502.759521484375,5.0009765625
15.976666666666667,190.617385864258,502.71630859375,4.939453125
15.985,190.575759887695,502.6748046875,4.904296875
15.993333333333334,190.534133911133,502.634033203125,4.9658203125
16.001666666666665,190.492492675781,502.58984375,5.0009765625
16.01,190.450897216797,502.546142578125,5.0419921875
16.018333333333334,190.409301757813,502.510009765625,4.98046875
16.026666666666667,190.367706298828,502.4716796875,4.9013671875
16.035,190.326110839844,502.42578125,4.857421875
16.043333333333333,190.284576416016,502.382080078125,4.7314453125
16.051666666666666,190.243011474609,502.33935546875,4.5732421875
16.06,190.201446533203,502.30126953125,4.5498046875
16.06833333333333,190.159912109375,502.266357421875,4.5615234375
16.076666666666668,190.118347167969,502.229248046875,4.4794921875
16.085,190.076782226563,502.195556640625,4.447265625
16.093333333333334,190.035247802734,502.1650390625,4.39453125
16.101666666666667,189.993713378906,502.130859375,4.376953125
16.11,189.9521484375,502.091552734375,4.3623046875
16.118333333333332,189.910537719727,502.052490234375,4.359375
16.126666666666665,189.868942260742,502.011474609375,4.435546875
16.135,189.827346801758,501.97314453125,4.5087890625
16.143333333333334,189.785781860352,501.9365234375,4.51171875
16.151666666666667,189.744216918945,501.90283203125,4.4619140625
16.16,189.702682495117,501.865966796875,4.3798828125
16.168333333333333,189.661117553711,501.825927734375,4.201171875
16.176666666666666,189.619552612305,501.789306640625,4.1220703125
16.185,189.57795715332,501.7548828125,4.125
16.19333333333333,189.536392211914,501.7197265625,4.1484375
16.201666666666668,189.494857788086,501.6875,4.0810546875
16.21,189.453323364258,501.661376953125,3.9990234375
16.218333333333334,189.411758422852,501.629638671875,3.955078125
16.226666666666667,189.370223999023,501.5927734375,3.884765625
16.235,189.328643798828,501.55712890625,3.83203125
16.243333333333332,189.287078857422,501.52587890625,3.85546875
16.251666666666665,189.245513916016,501.49267578125,3.9375
16.26,189.203948974609,501.459716796875,3.890625
16.268333333333334,189.162384033203,501.43115234375,3.80859375
16.276666666666667,189.120819091797,501.400390625,3.7646484375
16.285,189.079223632813,501.3662109375,3.7236328125
16.293333333333333,189.037689208984,501.333251953125,3.6123046875
16.301666666666666,188.996154785156,501.305419921875,3.6123046875
16.31,188.95458984375,501.275390625,3.6123046875
16.31833333333333,188.913055419922,501.243408203125,3.615234375
16.326666666666668,188.871520996094,501.215576171875,3.5625
16.335,188.830047607422,501.191650390625,3.4921875
16.343333333333334,188.788619995117,501.15869140625,3.515625
16.351666666666667,188.747146606445,501.130126953125,3.4833984375
16.36,188.705703735352,501.09912109375,3.4013671875
16.368333333333332,188.66423034668,501.0693359375,3.3251953125
16.376666666666665,188.62272644043,501.042236328125,3.3720703125
16.385,188.581237792969,501.012451171875,3.427734375
16.393333333333334,188.539733886719,500.985107421875,3.498046875
16.401666666666667,188.498260498047,500.9599609375,3.50390625
16.41,188.456787109375,500.9384765625,3.52734375
16.418333333333333,188.415313720703,500.91064453125,3.5712890625
16.426666666666666,188.373779296875,500.873046875,3.5859375
16.435,188.332244873047,500.838623046875,3.6416015625
16.44333333333333,188.290756225586,500.80712890625,3.685546875
16.451666666666668,188.249252319336,500.775390625,3.7646484375
16.46,188.207748413086,500.74462890625,3.744140625
16.468333333333334,188.166275024414,500.713623046875,3.5830078125
